;Revenue;Gross Profit;EBITDA;Operating Income;Income Before Tax;Net Income;Weighted Avg. Shares Outs. Dil.;Total Current Assets;Total Assets;Total Current Liabilities;Total Liabilities;Total Stockholders Equity;Cash Provided by Operating Activities;Cash Used for Investing Activities;Cash Used/Provided by Financing Activities;Net Change In Cash;Free Cash Flow;COGS;Gross Profit Ratio;Operating Expenses;R&D Expenses;Selling, G&A Exp.;General and Admin. Exp.;Selling and Marketing Exp;Other Expenses;COGS and Expenses;Interest Income;Interest Expense;Depreciation and Amortization;EBITDA ratio;Operating Income ratio;Total Other Income Exp.(Gains);Income Before Tax ratio;Income Tax Expense (Gain);Net Income Ratio;EPS;EPS Diluted;Weighted Avg. Shares Outs.;I_SEC Link;Cash and Cash Equivalents;Short-Term Investments;Cash & Short-Term Investments;Net Receivables;Inventory;Other Current Assets;PP&E;Goodwill;Intangible Assets;Goodwill and Intangible Assets;Investments;Tax Assets;Other Non-Current Assets;Total Non-Current Assets;Other Assets;Accounts Payable;Short-Term Debt;Tax Payable;Deferred Revenue;Other Current Liabilities;Long-Term Debt;Deferred Revenue;Deferred Tax Liabilities;Other Non-Current Liabilities;Total Non-Current Liabilities;Other Liabilities;Capital Lease Obligations;Preferred Stock;Common Stock;Retained Earnings;Other Compreh. Income(Loss);Other Total Stockhold. Equity;Total Liab.&Stockhold. Equity;Minority Interest;Total Liabilities & Equity;B_SEC Link;Net_Income;Depreciation_and_Amortization;Deferred_Income_Tax;Stock Based Compensation;Change in Working Capital;Accounts Receivable;Inventory;Accounts Payable;Other Working Capital;Other Non-Cash Items;CAPEX;Acquisitions Net;Purchases of Investments;Sales/Maturities of Investments;Other Investing Activities;Debt Repayment;Common Stock Issued;Common Stock Repurchased;Dividends Paid;Other Financing Activities;Effect of Forex Changes on Cash;Cash at the End of Period;Cash at the Beginning of Period;C_SEC Link;Dunno;Revenue per share;Earnings per share;FCF per share;Dividends per share;CAPEX per share;Book Value per sh.;Comm.Shares outs.;Avg. annual P/E ratio;P/E to S&P500;Avg. annual div. yield;Revenue (m);Operating margin;Depreciation (m);Net profit (m);Income tax rate;Net profit margin;Working capital (m);Long-term debt (m);Equity (m);ROIC;Return on capital;Return on equity;Plowback ratio;Div.&Repurch./FCF
1985.0;4346.0;1707.0;537.0;558.0;537.0;303.0;531.0;;;;;;;;;;;2639.0;39.28;1149.0;;787.0;;;362.0;3788.0;;;;12.36;12.83;-21.0;12.36;234.0;6.97;0.57;0.57;531.0;;;;;;;;;;;;;;;;;;;;;;;;;;;;;;;;;;;;;;;;;;;;;;;;;;;;;;;;;;;;;;;;;;;;;;;;;;;;;;;;;;;;;;
1986.0;4687.0;1896.0;553.0;618.0;553.0;316.0;476.0;;;;;;;;;;;2791.0;40.45;1278.0;;878.0;;;400.0;4069.0;;;;11.79;13.19;-66.0;11.79;236.0;6.75;0.67;0.67;476.0;;;;;;;;;;;;;;;;;;;;;;;;;;;;;;;;;;;;;;;;;;;;;;;;;;;;;;;;;;;;;;;;;;;;;;;;;;;;;;;;;;;;;;
1987.0;5183.0;2095.0;637.0;651.0;637.0;377.0;471.0;;;;;;;;;;;3087.0;40.43;1444.0;;1000.0;;;445.0;4532.0;;;;12.29;12.56;-14.0;12.29;260.0;7.28;0.8;0.8;471.0;;;;;;;;;;;;;;;;;;;;;;;;;;;;;;;;;;;;;;;;;;;;;;;;;;;;;;;;;;;;;;;;;;;;;;;;;;;;;;;;;;;;;;
1988.0;5639.0;2305.0;779.0;920.0;779.0;468.0;441.0;;;;;;;;;;;3334.0;40.88;1385.0;;1092.0;;;293.0;4718.0;;;;13.82;16.32;-141.0;13.82;311.0;8.29;1.06;1.06;439.0;;;;;;;;;;;;;;;;;;;;;;;;;;;;;;;;;;;;;;;;;;;;;;;;;;;;;;;;;;;;;;;;;;;;;;;;;;;;;;;;;;;;;;
1989.0;5734.0;2143.0;1059.0;836.0;749.0;465.0;447.0;;;;;;580.0;-437.0;-185.0;-185.0;43.0;3591.0;37.37;1307.0;;997.0;;;310.0;4898.0;;;310.0;18.47;14.58;-88.0;13.06;284.0;8.11;1.04;1.04;445.0;;;;;;;;;;;;;;;;;;;;;;;;;;;;;;;;;;;;;;465.0;310.0;;;-154.0;;-44.0;;;-41.0;-537.0;;;;99.0;;253.0;-306.0;-165.0;34.0;3.0;;103.0;;;;;;;;;;;;;;;;;;;;;;;;;;
1990.0;6021.0;2300.0;1112.0;904.0;767.0;475.0;430.0;;;;;;913.0;-488.0;-429.0;-429.0;389.0;3721.0;38.2;1396.0;;1051.0;;;345.0;5117.0;;;345.0;18.46;15.02;-138.0;12.74;292.0;7.89;1.11;1.1;428.0;;;;;;;;;;;;;;;;;;;;;;;;;;;;;;;;;;;;;;475.0;345.0;;;;;-124.0;;;94.0;-524.0;;;26.0;11.0;;3.0;-136.0;-176.0;-120.0;-2.0;;65.0;;;;;;;;;;;;;;;;;;;;;;;;;;
1991.0;5673.0;2018.0;721.0;566.0;348.0;201.0;429.0;;;;;;479.0;-275.0;-227.0;-227.0;144.0;3655.0;35.58;1452.0;;1079.0;;;373.0;5106.0;;;373.0;12.71;9.98;-218.0;6.14;147.0;3.55;0.47;0.47;424.0;;;;;;;;;;;;;;;;;;;;;;;;;;;;;;;;;;;;;;201.0;373.0;;;;;55.0;;;-95.0;-335.0;;;43.0;18.0;;10.0;-15.0;-183.0;-39.0;1.0;;59.0;;;;;;;;;;;;;;;;;;;;;;;;;;
1992.0;5814.0;2141.0;911.0;685.0;538.0;319.0;426.0;;;;;;670.0;-256.0;-389.0;-389.0;388.0;3673.0;36.82;1456.0;;1083.0;;;373.0;5129.0;;;373.0;15.67;11.78;-147.0;9.25;218.0;5.49;0.76;0.75;423.0;;;;;;;;;;;;;;;;;;;;;;;;;;;;;;;;;;;;;;319.0;373.0;;;;;85.0;;;-22.0;-282.0;;;;26.0;;28.0;-27.0;-200.0;-191.0;-1.0;;38.0;;;;;;;;;;;;;;;;;;;;;;;;;;
1993.0;5754.0;2140.0;609.0;717.0;531.0;22.0;444.0;;;;;;741.0;-237.0;-452.0;-452.0;483.0;3614.0;37.19;1423.0;;1073.0;;;350.0;5037.0;;;350.0;10.58;12.45;-185.0;9.23;236.0;0.39;0.05;0.05;444.0;;;;;;;;;;;;;;;;;;;;;;;;;;;;;;;;;;;;;;22.0;350.0;;;;;27.0;;;368.0;-258.0;;;;21.0;;13.0;-81.0;-221.0;-163.0;-2.0;;61.0;;;;;;;;;;;;;;;;;;;;;;;;;;
1994.0;6331.0;2466.0;1175.0;1011.0;840.0;515.0;429.0;2168.0;5894.0;1425.0;3267.0;2557.0;691.0;-245.0;-498.0;-50.0;369.0;3866.0;38.95;1455.0;218.0;919.0;919.0;;318.0;5320.0;;;335.0;18.56;15.97;-171.0;13.26;325.0;8.13;1.22;1.22;424.0;;62.0;;62.0;1229.0;686.0;191.0;2742.0;;;;;;983.0;3726.0;;518.0;371.0;;;536.0;745.0;;303.0;794.0;1842.0;;;;484.0;3717.0;-3420.0;1776.0;5824.0;70.0;5894.0;;515.0;335.0;;;744.0;;-26.0;;744.0;-902.0;-322.0;-34.0;;;110.0;;19.0;-280.0;-238.0;1.0;2.0;62.0;112.0;;;;;;;;;;;;;;;;;;;;;;;;;;
1995.0;7058.0;2846.0;1599.0;1301.0;1247.0;768.0;413.0;2276.0;6194.0;1629.0;3557.0;2569.0;1072.0;-276.0;-753.0;44.0;624.0;4212.0;40.32;1545.0;236.0;977.0;977.0;;332.0;5757.0;;;352.0;22.65;18.43;-53.0;17.67;480.0;10.88;1.9;1.9;404.0;;106.0;;106.0;1245.0;738.0;187.0;2835.0;;;;;;1084.0;3919.0;;583.0;485.0;;;561.0;707.0;;355.0;866.0;1928.0;;;;484.0;4249.0;-3629.0;1465.0;6126.0;68.0;6194.0;;768.0;352.0;;;-98.0;;-47.0;;646.0;50.0;-448.0;-7.0;;;179.0;;7.0;-588.0;-239.0;67.0;-0.0;106.0;62.0;;;;;;;;;;;;;;;;;;;;;;;;;;
1996.0;7218.0;2878.0;1578.0;1294.0;1215.0;744.0;382.0;2296.0;6441.0;1769.0;3883.0;2483.0;1008.0;-468.0;-575.0;-36.0;532.0;4340.0;39.87;1584.0;239.0;1004.0;1004.0;;340.0;5924.0;;;363.0;21.86;17.93;-79.0;16.83;471.0;10.31;1.98;1.98;376.0;;70.0;;70.0;1226.0;797.0;205.0;2914.0;;;;;;1232.0;4145.0;;602.0;648.0;;;519.0;806.0;;419.0;889.0;2114.0;;;;484.0;4760.0;-3775.0;1013.0;6365.0;76.0;6441.0;;744.0;363.0;;;-119.0;;-56.0;;528.0;20.0;-476.0;-13.0;;;20.0;;27.0;-635.0;-237.0;270.0;-0.0;70.0;106.0;;;;;;;;;;;;;;;;;;;;;;;;;;
1997.0;7379.0;2982.0;1522.0;1316.0;1149.0;714.0;362.0;2584.0;6868.0;1662.0;4277.0;2509.0;1007.0;-583.0;-360.0;59.0;541.0;4397.0;40.41;1666.0;250.0;1068.0;1068.0;;348.0;6063.0;;;373.0;20.63;17.83;-167.0;15.57;435.0;9.68;1.99;1.97;360.0;;129.0;;129.0;1353.0;863.0;239.0;2855.0;;;;;;1429.0;4284.0;;646.0;444.0;;;572.0;1216.0;;406.0;993.0;2615.0;;;;484.0;5239.0;-3903.0;689.0;6786.0;82.0;6868.0;;714.0;373.0;;;395.0;;-60.0;;922.0;-475.0;-466.0;-363.0;;;246.0;;14.0;-343.0;-239.0;208.0;-5.0;129.0;70.0;;;;;;;;;;;;;;;;;;;;;;;;;;
1998.0;7510.0;3034.0;1650.0;1276.0;1267.0;801.0;358.0;2660.0;7387.0;1912.0;4420.0;2880.0;942.0;-581.0;-361.0;-1.0;455.0;4476.0;40.4;1758.0;271.0;1133.0;1133.0;;354.0;6234.0;;;383.0;21.97;16.99;-9.0;16.87;466.0;10.67;2.26;2.26;354.0;;128.0;;128.0;1366.0;917.0;249.0;2905.0;;576.0;576.0;;;1246.0;4727.0;;630.0;637.0;;;645.0;1047.0;;440.0;1021.0;2508.0;;;;484.0;5791.0;-3834.0;439.0;7300.0;87.0;7387.0;;801.0;383.0;;;-174.0;;-73.0;;748.0;-68.0;-487.0;-390.0;;;296.0;;22.0;-217.0;-252.0;86.0;-1.0;128.0;129.0;;;;;;;;;;;;;;;;;;;;;;;;;;
1999.0;7757.0;3038.0;1364.0;1109.0;945.0;568.0;352.0;3062.0;8914.0;2384.0;5710.0;3106.0;902.0;-1644.0;773.0;30.0;412.0;4719.0;39.16;1929.0;284.0;1230.0;1230.0;;415.0;6648.0;;;419.0;17.58;14.3;-164.0;12.18;377.0;7.32;1.64;1.61;347.0;;158.0;;158.0;1594.0;1016.0;294.0;2933.0;;1662.0;1662.0;;;1257.0;5852.0;;755.0;954.0;;;675.0;1826.0;;520.0;980.0;3326.0;;;;484.0;6098.0;-3926.0;450.0;8816.0;98.0;8914.0;;568.0;419.0;;;-70.0;;-7.0;;678.0;-15.0;-490.0;-1343.0;;;189.0;;9.0;-82.0;-264.0;1110.0;-1.0;158.0;128.0;;;;;;;;;;;;;;;;;;;;;;;;;;
2000.0;8629.0;3295.0;1436.0;1202.0;989.0;620.0;347.0;3093.0;9125.0;2543.0;5900.0;3097.0;870.0;-636.0;-278.0;-47.0;309.0;5334.0;38.19;2093.0;282.0;1364.0;1364.0;;447.0;7427.0;;;447.0;16.64;13.93;-213.0;11.46;369.0;7.19;1.8;1.78;344.0;;111.0;;111.0;1563.0;1121.0;298.0;2941.0;;1648.0;1648.0;;;1443.0;6032.0;;764.0;1161.0;;;618.0;1800.0;;543.0;1014.0;3357.0;;;;484.0;6444.0;-4148.0;317.0;8997.0;128.0;9125.0;;620.0;447.0;;;-128.0;;-92.0;;550.0;-69.0;-561.0;-115.0;;;40.0;;4.0;-247.0;-276.0;241.0;-3.0;111.0;158.0;;;;;;;;;;;;;;;;;;;;;;;;;;
2001.0;8169.0;3032.0;1081.0;924.0;634.0;387.0;338.0;2703.0;8452.0;1955.0;5250.0;3080.0;1060.0;-245.0;-816.0;-3.0;769.0;5137.0;37.12;2108.0;266.0;1395.0;1395.0;;447.0;7245.0;;;447.0;13.23;11.31;-290.0;7.76;247.0;4.74;1.15;1.15;337.0;;108.0;;108.0;1416.0;904.0;275.0;2752.0;;1542.0;1542.0;;;1455.0;5749.0;;610.0;696.0;;;649.0;1689.0;;552.0;1054.0;3295.0;;;;484.0;6551.0;-4401.0;446.0;8330.0;122.0;8452.0;;387.0;447.0;;;198.0;;187.0;;748.0;28.0;-291.0;-10.0;;;56.0;;13.0;-5.0;-283.0;-541.0;-2.0;108.0;111.0;;;;;;;;;;;;;;;;;;;;;;;;;;
2002.0;8067.0;3001.0;322.0;911.0;-28.0;-69.0;337.0;2945.0;7863.0;1920.0;5582.0;2150.0;872.0;-212.0;-655.0;9.0;634.0;5066.0;37.2;2090.0;273.0;1419.0;;;398.0;7156.0;;;398.0;3.99;11.29;-939.0;-0.35;-7.0;-0.86;-0.2;-0.2;337.0;;117.0;;117.0;1486.0;942.0;400.0;2632.0;;1561.0;1561.0;;;725.0;4918.0;;1378.0;352.0;;;190.0;1689.0;;64.0;1909.0;3662.0;;10.0;;484.0;6197.0;-4638.0;107.0;7732.0;131.0;7863.0;;-69.0;398.0;;;277.0;;-9.0;;1025.0;266.0;-238.0;-22.0;;;48.0;;32.0;;-287.0;-400.0;4.0;117.0;108.0;;;;;;;;;;;;;;;;;;;;;;;;;;
2003.0;8756.0;3235.0;1181.0;973.0;500.0;494.0;342.0;3537.0;8424.0;2139.0;5376.0;2911.0;1123.0;-166.0;-593.0;382.0;906.0;5521.0;36.95;2262.0;290.0;1578.0;;;394.0;7783.0;;;394.0;13.49;11.11;-473.0;5.71;293.0;5.64;1.46;1.45;340.0;;499.0;;499.0;1631.0;997.0;410.0;2566.0;;1652.0;1652.0;;;669.0;4887.0;;1504.0;327.0;;;308.0;1339.0;;88.0;1810.0;3237.0;;;;484.0;6399.0;-5054.0;1082.0;8287.0;137.0;8424.0;;494.0;394.0;;;373.0;;11.0;;1398.0;-138.0;-217.0;-3.0;;;54.0;;86.0;;-294.0;-385.0;18.0;499.0;117.0;;;;;;;;;;;;;;;;;;;;;;;;;;
2004.0;9513.0;3514.0;1393.0;1108.0;1063.0;683.0;346.0;4054.0;8932.0;2221.0;5264.0;3572.0;1018.0;-260.0;-585.0;210.0;774.0;5999.0;36.94;2406.0;303.0;1715.0;;;388.0;8405.0;;;388.0;14.64;11.65;-45.0;11.17;322.0;7.18;1.99;1.98;343.0;;709.0;;709.0;1797.0;1076.0;472.0;2471.0;;1713.0;1713.0;;;694.0;4878.0;;1651.0;166.0;;;404.0;1184.0;;145.0;1714.0;3043.0;;;;484.0;6776.0;-5384.0;1696.0;8836.0;96.0;8932.0;;683.0;388.0;;;435.0;;-45.0;;1833.0;-488.0;-244.0;-67.0;;;51.0;;121.0;-100.0;-307.0;-299.0;37.0;709.0;499.0;;;;;;;;;;;;;;;;;;;;;;;;;;
2005.0;10201.0;3728.0;1250.0;1276.0;947.0;596.0;342.0;4019.0;8681.0;2349.0;5520.0;3053.0;1065.0;-365.0;-857.0;-193.0;777.0;6473.0;36.55;2452.0;309.0;1771.0;;;372.0;8925.0;;;372.0;12.25;12.51;-329.0;9.28;282.0;5.84;1.75;1.75;340.0;;466.0;;466.0;1871.0;1119.0;563.0;2304.0;;1654.0;1654.0;311.0;;393.0;4662.0;;1776.0;101.0;;;472.0;1169.0;;90.0;1912.0;3171.0;;;;484.0;7057.0;-819.0;-3669.0;8573.0;108.0;8681.0;;596.0;372.0;;;-163.0;;-59.0;;1670.0;260.0;-288.0;-91.0;-1990.0;2040.0;-36.0;;148.0;-607.0;-316.0;-82.0;-36.0;466.0;659.0;;;;;;;;;;;;;;;;;;;;;;;;;;
2006.0;11037.0;4001.0;1369.0;1323.0;1060.0;711.0;333.0;4592.0;10021.0;2787.0;6639.0;3234.0;1130.0;-662.0;-501.0;-11.0;758.0;7036.0;36.25;2678.0;318.0;1980.0;;;380.0;9714.0;;;380.0;12.4;11.99;-263.0;9.6;278.0;6.44;2.15;2.13;331.0;;455.0;;455.0;2168.0;1390.0;579.0;2496.0;1396.0;586.0;1982.0;343.0;;608.0;5429.0;;1081.0;140.0;;;1566.0;1155.0;;136.0;2561.0;3852.0;;;;484.0;7453.0;-939.0;-3764.0;9873.0;148.0;10021.0;;711.0;380.0;;;135.0;;-78.0;;1805.0;-96.0;-372.0;-402.0;-963.0;963.0;112.0;;67.0;-153.0;-316.0;-99.0;22.0;455.0;466.0;;;33.3;2.15;2.29;0.95;1.12;9.76;331.0;14.9;0.8;3.0;11037.0;12.0;380.0;711.0;26.2;6.4;1805.0;1155.0;3234.0;10.3;10.0;22.0;55.6;53.0
2007.0;11206.0;4119.0;1569.0;1264.0;1243.0;834.0;332.0;7136.0;12629.0;4661.0;8345.0;4151.0;996.0;-2207.0;1283.0;83.0;643.0;7087.0;36.76;2855.0;339.0;2136.0;;;380.0;9942.0;;;380.0;14.0;11.28;-21.0;11.09;355.0;7.44;2.54;2.52;329.0;;526.0;1706.0;2232.0;2398.0;1368.0;1138.0;2426.0;1476.0;612.0;2088.0;370.0;;609.0;5493.0;;2150.0;1819.0;;;692.0;1201.0;;164.0;2319.0;3684.0;;;;484.0;7963.0;-582.0;-3714.0;12496.0;133.0;12629.0;;834.0;380.0;;;670.0;;-55.0;;2475.0;-888.0;-353.0;-231.0;;;-1623.0;;194.0;-274.0;-335.0;1698.0;11.0;526.0;443.0;;;34.06;2.53;1.95;1.02;1.07;12.62;329.0;14.3;0.8;2.8;11206.0;11.3;380.0;834.0;28.6;7.4;2475.0;1201.0;4151.0;10.8;9.5;20.1;59.8;64.5
2008.0;15849.0;5694.0;1639.0;1244.0;908.0;538.0;331.0;6348.0;14698.0;4210.0;11365.0;3333.0;1358.0;125.0;-978.0;495.0;975.0;10155.0;35.93;4450.0;451.0;3432.0;;;567.0;14605.0;26.0;254.0;563.0;10.34;7.85;-336.0;5.73;284.0;3.39;1.64;1.63;329.0;;1021.0;;1021.0;2804.0;1702.0;821.0;2798.0;2641.0;1472.0;4113.0;509.0;;930.0;8350.0;;1402.0;903.0;;;1905.0;3009.0;;425.0;3721.0;7155.0;;;;484.0;8156.0;-1628.0;-3679.0;14698.0;;14698.0;;538.0;563.0;;;-337.0;;79.0;;2138.0;594.0;-383.0;-1448.0;;;1956.0;-3691.0;13.0;-7.0;-343.0;3050.0;-10.0;1021.0;526.0;;;48.14;1.63;2.96;1.04;1.16;10.12;329.0;17.8;0.8;3.6;15849.0;7.8;563.0;538.0;31.3;3.4;2138.0;3009.0;3333.0;7.1;7.3;16.1;36.2;34.6
2009.0;12239.0;4700.0;1200.0;883.0;617.0;336.0;331.0;5981.0;14240.0;3577.0;10318.0;3753.0;1345.0;-203.0;-1123.0;36.0;1106.0;7539.0;38.4;3817.0;388.0;2936.0;;3324.0;493.0;11356.0;28.0;193.0;480.0;9.8;7.21;-266.0;5.04;191.0;2.75;1.02;1.01;330.0;;1057.0;;1057.0;2628.0;1548.0;748.0;2754.0;2784.0;1416.0;4200.0;499.0;;806.0;8259.0;;1384.0;272.0;;;1921.0;3074.0;;328.0;3339.0;6741.0;;;;484.0;8139.0;-1261.0;-3609.0;14071.0;169.0;14240.0;;336.0;480.0;;;266.0;;232.0;-152.0;2404.0;263.0;-239.0;-26.0;;;62.0;-1076.0;12.0;-59.0;-430.0;430.0;17.0;1057.0;1021.0;;;37.13;1.02;3.36;1.3;0.73;11.39;330.0;23.6;0.3;5.4;12239.0;7.2;480.0;336.0;31.0;2.7;2404.0;3074.0;3753.0;4.7;5.1;9.0;-28.0;43.1
2010.0;13423.0;5209.0;1843.0;1354.0;1295.0;769.0;332.0;7058.0;14975.0;3625.0;11142.0;3638.0;1310.0;-949.0;-104.0;284.0;1003.0;8214.0;38.81;3855.0;394.0;2979.0;;;482.0;12069.0;34.0;189.0;470.0;13.73;10.09;-59.0;9.65;415.0;5.73;2.33;2.31;329.0;;1341.0;637.0;1978.0;2778.0;1573.0;729.0;2686.0;2719.0;1268.0;3987.0;550.0;;694.0;7917.0;;1626.0;28.0;;;1971.0;4043.0;;293.0;3181.0;7517.0;;;;484.0;8548.0;-1411.0;-3983.0;14780.0;195.0;14975.0;;769.0;470.0;;;1029.0;;-34.0;;3433.0;-958.0;-307.0;-34.0;-624.0;;16.0;-262.0;146.0;-586.0;-447.0;1045.0;27.0;1341.0;1057.0;;;40.8;2.34;3.05;1.36;0.93;11.06;329.0;14.6;0.7;4.0;13423.0;10.1;470.0;769.0;32.0;5.7;3433.0;4043.0;3638.0;8.4;9.3;21.1;41.9;88.4
2011.0;14885.0;5804.0;2157.0;1673.0;1597.0;1095.0;319.0;6694.0;14382.0;3702.0;10936.0;3249.0;1436.0;353.0;-1632.0;116.0;1046.0;9081.0;38.99;4131.0;430.0;3234.0;;;467.0;13212.0;42.0;210.0;467.0;14.49;11.24;-76.0;10.73;385.0;7.36;3.48;3.44;315.0;;1457.0;25.0;1482.0;2830.0;1607.0;775.0;2721.0;2660.0;1125.0;3785.0;387.0;;795.0;7688.0;;1612.0;108.0;;;1982.0;3574.0;;272.0;3388.0;7234.0;;;;484.0;9288.0;-1800.0;-4723.0;14185.0;197.0;14382.0;;1095.0;467.0;;;-441.0;;-73.0;;2992.0;315.0;-390.0;-56.0;-125.0;749.0;175.0;-398.0;81.0;-858.0;-355.0;-102.0;-41.0;1457.0;1341.0;;;47.31;3.48;3.32;1.13;1.24;10.33;315.0;12.2;0.7;2.7;14885.0;11.2;467.0;1095.0;24.1;7.4;2992.0;3574.0;3249.0;12.2;11.9;33.7;67.6;108.2
2012.0;15200.0;6131.0;1954.0;1927.0;1402.0;941.0;310.0;7715.0;15878.0;4461.0;11556.0;4063.0;1787.0;-1611.0;-351.0;-151.0;1376.0;9069.0;40.34;4204.0;455.0;3335.0;;;414.0;13273.0;39.0;210.0;465.0;12.86;12.68;-525.0;9.22;338.0;6.19;3.06;3.03;307.0;;1306.0;1087.0;2393.0;2813.0;1687.0;822.0;2888.0;2761.0;1085.0;3846.0;422.0;;1007.0;8163.0;;1832.0;642.0;;;1987.0;3368.0;;231.0;3496.0;7095.0;;;;484.0;9871.0;-1666.0;-4626.0;15619.0;259.0;15878.0;;941.0;465.0;;;262.0;90.0;29.0;;3254.0;119.0;-411.0;-122.0;-1355.0;251.0;26.0;-203.0;122.0;-92.0;-358.0;180.0;24.0;1306.0;1457.0;;;49.54;3.07;4.49;1.17;1.34;13.24;307.0;17.3;1.2;2.2;15200.0;12.7;465.0;941.0;24.1;6.2;3254.0;3368.0;4063.0;10.1;9.5;23.2;62.0;23.8
2013.0;15108.0;6472.0;4235.0;1858.0;1489.0;3231.0;290.0;7214.0;15863.0;4135.0;10665.0;4932.0;1791.0;3.0;-1979.0;-190.0;1276.0;8636.0;42.84;4614.0;488.0;3699.0;;;427.0;13250.0;43.0;196.0;475.0;28.03;12.3;-369.0;9.86;333.0;21.39;11.27;11.13;287.0;;1116.0;629.0;1745.0;2736.0;1824.0;909.0;2876.0;3008.0;1339.0;4347.0;393.0;491.0;542.0;8649.0;;2015.0;34.0;;;2086.0;3372.0;;249.0;2909.0;6530.0;;;;484.0;12757.0;-1260.0;-7049.0;15597.0;266.0;15863.0;;3231.0;475.0;-36.0;81.0;-175.0;44.0;43.0;;3079.0;-1785.0;-515.0;-43.0;-1269.0;1833.0;-518.0;-605.0;68.0;-1000.0;-345.0;-97.0;-5.0;1116.0;1306.0;;;52.68;11.27;4.45;1.2;1.8;17.2;287.0;6.9;0.4;1.5;15108.0;12.3;475.0;3231.0;22.4;21.4;3079.0;3372.0;4932.0;25.5;24.1;65.5;89.3;100.1
2014.0;15360.0;6569.0;3024.0;1893.0;1416.0;2102.0;280.0;6850.0;17583.0;4876.0;12318.0;5180.0;1528.0;-857.0;-969.0;-430.0;941.0;8791.0;42.77;4676.0;492.0;3758.0;;;426.0;13467.0;50.0;187.0;476.0;19.69;12.32;-477.0;9.22;259.0;13.68;7.6;7.51;277.0;;686.0;497.0;1183.0;2815.0;1825.0;1027.0;3092.0;3801.0;2411.0;6212.0;443.0;505.0;481.0;10733.0;;2183.0;481.0;;;2212.0;3544.0;;702.0;3196.0;7442.0;;;;484.0;14498.0;-2116.0;-7686.0;17498.0;85.0;17583.0;;2102.0;476.0;-89.0;73.0;-1105.0;-119.0;-95.0;;1974.0;71.0;-587.0;-488.0;-1249.0;1384.0;-504.0;-1803.0;57.0;-750.0;-361.0;1888.0;-132.0;686.0;1116.0;;;55.53;7.6;3.4;1.31;2.12;18.73;277.0;13.1;0.7;1.3;15360.0;12.3;476.0;2102.0;18.3;13.7;1974.0;3544.0;5180.0;16.5;14.6;40.6;82.8;112.0
2015.0;15330.0;6739.0;2483.0;2118.0;1882.0;1406.0;274.0;6554.0;17076.0;4656.0;12007.0;4983.0;1837.0;-395.0;-754.0;625.0;1361.0;8591.0;43.96;4621.0;486.0;3679.0;;;456.0;13212.0;40.0;126.0;495.0;16.2;13.82;-236.0;12.28;456.0;9.17;5.18;5.14;271.0;;1311.0;144.0;1455.0;2788.0;1705.0;606.0;3017.0;3669.0;2178.0;5847.0;367.0;672.0;619.0;10522.0;;2174.0;283.0;;;2199.0;4042.0;;460.0;2849.0;7351.0;;;;969.0;15521.0;-2702.0;-8805.0;16990.0;86.0;17076.0;;1406.0;495.0;;56.0;-76.0;-149.0;46.0;;1898.0;-44.0;-476.0;-273.0;-131.0;458.0;-449.0;-340.0;53.0;-751.0;-383.0;667.0;-63.0;1311.0;686.0;;;56.48;5.18;5.01;1.41;1.75;18.36;271.0;20.6;1.0;1.3;15330.0;13.8;495.0;1406.0;24.2;9.2;1898.0;4042.0;4983.0;12.2;11.7;28.2;72.8;79.4
2016.0;14751.0;6688.0;1705.0;2113.0;827.0;877.0;267.0;6452.0;15769.0;4240.0;10856.0;4826.0;1325.0;436.0;-1184.0;509.0;923.0;8063.0;45.34;4575.0;466.0;4630.0;;;-521.0;12638.0;26.0;125.0;462.0;11.56;14.32;-1286.0;5.61;241.0;5.95;3.3;3.28;266.0;;1820.0;43.0;1863.0;2692.0;1546.0;351.0;2759.0;3572.0;1983.0;5555.0;179.0;154.0;670.0;9317.0;;2175.0;629.0;;;1436.0;3787.0;;417.0;2412.0;6616.0;;;;969.0;15984.0;-2356.0;-9771.0;15682.0;87.0;15769.0;;877.0;462.0;155.0;39.0;314.0;-59.0;61.0;;2212.0;-522.0;-402.0;745.0;-36.0;116.0;-389.0;-379.0;31.0;-1050.0;-414.0;628.0;-68.0;1820.0;1311.0;;;55.54;3.3;3.48;1.56;1.51;18.17;266.0;30.9;1.4;1.5;14751.0;14.3;462.0;877.0;29.1;5.9;2212.0;3787.0;4826.0;7.7;7.9;18.2;52.8;155.3
2017.0;14750.0;6546.0;2772.0;2074.0;2008.0;1591.0;258.0;6477.0;16538.0;3894.0;10865.0;5558.0;1568.0;-67.0;-1954.0;-384.0;1208.0;8204.0;44.38;4472.0;453.0;3630.0;;;389.0;12676.0;20.0;105.0;460.0;18.79;14.06;-66.0;13.61;616.0;10.79;6.36;6.31;256.0;;1436.0;55.0;1491.0;2903.0;1730.0;353.0;2824.0;3942.0;2045.0;5987.0;268.0;305.0;677.0;10061.0;;2581.0;12.0;;;1301.0;4134.0;;442.0;2395.0;6971.0;;;;969.0;17141.0;-2057.0;-10495.0;16423.0;115.0;16538.0;;1591.0;460.0;36.0;42.0;371.0;-76.0;-116.0;;2583.0;-932.0;-360.0;268.0;-35.0;37.0;-337.0;-588.0;52.0;-813.0;-434.0;-171.0;69.0;1436.0;1820.0;;;57.59;6.21;4.72;1.69;1.41;21.7;256.0;17.4;0.7;1.6;14750.0;14.1;460.0;1591.0;30.7;10.8;2583.0;4134.0;5558.0;12.8;14.1;28.6;72.7;98.9
2018.0;15374.0;6373.0;2309.0;1872.0;1693.0;1341.0;245.0;5961.0;16015.0;4373.0;11283.0;4630.0;1467.0;-764.0;-1205.0;-534.0;1056.0;9001.0;41.45;4501.0;441.0;3573.0;;;487.0;13502.0;23.0;118.0;497.0;15.02;12.18;-179.0;11.01;353.0;8.72;5.5;5.47;244.0;;902.0;61.0;963.0;2845.0;1783.0;370.0;2805.0;4070.0;1972.0;6042.0;251.0;229.0;727.0;10054.0;;2460.0;651.0;;;1262.0;4365.0;;429.0;2116.0;6910.0;;;;969.0;18131.0;-2300.0;-12170.0;15913.0;102.0;16015.0;;1341.0;497.0;45.0;37.0;-995.0;-69.0;-109.0;;1588.0;542.0;-411.0;-378.0;-28.0;23.0;-381.0;-6.0;15.0;-1721.0;-453.0;960.0;-32.0;902.0;1436.0;;;63.03;5.5;4.33;1.86;1.69;18.98;244.0;19.7;0.8;1.7;15374.0;12.2;497.0;1341.0;20.9;8.7;1588.0;4365.0;4630.0;12.4;11.4;29.0;66.2;204.5
2019.0;15146.0;6493.0;2278.0;1954.0;1661.0;1243.0;238.0;6170.0;17708.0;4375.0;12305.0;5284.0;2080.0;-1009.0;-758.0;314.0;1667.0;8653.0;42.87;4539.0;432.0;3604.0;;;503.0;13192.0;32.0;132.0;511.0;15.04;12.9;-293.0;10.97;392.0;8.21;5.25;5.22;237.0;;1216.0;57.0;1273.0;2756.0;1710.0;431.0;3765.0;4470.0;2131.0;6601.0;258.0;220.0;694.0;11538.0;;2378.0;513.0;;;1484.0;4539.0;;452.0;2939.0;7930.0;;792.0;;969.0;18906.0;-2350.0;-12241.0;17589.0;119.0;17708.0;;1243.0;511.0;-5.0;39.0;207.0;;145.0;-63.0;1795.0;85.0;-413.0;-643.0;-8.0;28.0;-386.0;-660.0;61.0;-325.0;-468.0;634.0;1.0;1216.0;902.0;;;63.93;5.25;7.04;1.98;1.74;22.3;237.0;21.9;0.9;1.7;15146.0;12.9;511.0;1243.0;23.6;8.2;1795.0;4539.0;5284.0;10.2;10.0;23.5;62.3;43.9
2020.0;13834.0;6057.0;1997.0;1787.0;1362.0;1059.0;238.0;6798.0;19556.0;4831.0;13741.0;5689.0;2130.0;-1447.0;-59.0;610.0;1826.0;7777.0;43.78;4270.0;379.0;3389.0;;;502.0;12047.0;23.0;138.0;509.0;14.44;12.92;-425.0;9.85;291.0;7.66;4.47;4.45;237.0;;1826.0;96.0;1922.0;2726.0;1735.0;415.0;3974.0;5102.0;2351.0;7453.0;267.0;379.0;685.0;12758.0;;2579.0;758.0;46.0;;1494.0;5848.0;;435.0;2627.0;8910.0;;857.0;;969.0;19469.0;-2599.0;-12150.0;19430.0;126.0;19556.0;;1059.0;509.0;-47.0;44.0;172.0;;111.0;127.0;1967.0;393.0;-304.0;-1169.0;-5.0;22.0;-295.0;-2423.0;54.0;;-496.0;2806.0;6.0;1826.0;1216.0;;;58.42;4.47;7.71;2.09;1.28;24.02;237.0;25.8;0.7;1.8;13834.0;12.9;509.0;1059.0;21.4;7.7;1967.0;5848.0;5689.0;8.0;7.7;18.6;53.2;24.2
2021.0;16802.0;6516.0;2495.0;2171.0;1815.0;1439.0;239.0;6774.0;21351.0;4766.0;14940.0;6286.0;1562.0;-2404.0;93.0;-821.0;1191.0;10286.0;38.78;4822.0;439.0;3830.0;3830.0;;553.0;15108.0;26.0;121.0;561.0;14.85;12.92;-356.0;10.8;374.0;8.56;6.08;6.08;237.0;;1005.0;67.0;1072.0;3152.0;2171.0;379.0;4333.0;6248.0;2783.0;9031.0;274.0;197.0;742.0;14577.0;;3102.0;201.0;36.0;;1463.0;7265.0;;646.0;2263.0;10174.0;;885.0;;969.0;20372.0;-2750.0;;21226.0;125.0;21351.0;;1439.0;561.0;35.0;57.0;-188.0;;-279.0;295.0;-109.0;-342.0;-371.0;-2137.0;;;-267.0;-1457.0;47.0;-210.0;-536.0;2249.0;-72.0;1005.0;1826.0;;;70.78;6.06;5.02;2.26;1.56;26.48;237.0;26.0;0.9;1.4;16802.0;12.9;561.0;1439.0;20.6;8.6;2008.0;7265.0;6286.0;9.3;9.1;22.9;62.8;58.7
